CLOSED
Version	0.4
Run	1
Module	TGA 1000 øC
Sample	Fe-Curie point-080326                                           
Size	15.4850	mg
Method	Fe-Curie point-080326                                           
Operator	TM                                                              
Comment	                                                                
Xcomment	Pan: Alumina            Gas1: Argon     100mL/min   Gas2: None
Text
Kcell	1.00000
TempCal	0	pts
Thresholds	0.050	0.0000
Controls	Gas 1  Event Off  Sampling 2.0 sec/pt
Nsig	4
Sig1	Time (min)
Sig2	Temperature (øC)
Sig3	Weight (mg)
Sig4	Deriv. Weight (%/øC)
Date	3-Aug-26
Time	17:12
File	C:\Documents and Settings\example_directory\Fe-Curie point-080326.001
OrgFile	C:\Documents and Settings\example_directory\Fe-Curie point-080326.001
 0.000000 599.780 15.8394 -6.402E-3
0.0331667 599.968 15.8399 -6.330E-3
0.0665000 600.154 15.8405 -5.981E-3
0.0998333 600.336 15.8409 -5.926E-3
0.133167 600.531 15.8413 -5.866E-3
0.167333 600.745 15.8418 -5.551E-3
0.201500 600.974 15.8420 -5.496E-3
0.234833 601.214 15.8424 -5.206E-3
0.268167 601.470 15.8427 -5.157E-3
0.301500 601.743 15.8430 -4.904E-3
0.335500 602.043 15.8433 -4.876E-3
0.369667 602.361 15.8436 -4.652E-3
0.403000 602.691 15.8438 -4.410E-3
0.436333 603.041 15.8440 -4.380E-3
0.469667 603.410 15.8442 -4.199E-3
0.504667 603.818 15.8444 -4.050E-3
0.539667 604.250 15.8446 -4.030E-3
0.573333 604.682 15.8448 -3.912E-3
0.606667 605.132 15.8449 -3.591E-3
0.640000 605.601 15.8450 -3.152E-3
0.673333 606.089 15.8451 -2.898E-3
0.706667 606.595 15.8453 -2.710E-3
0.740000 607.118 15.8456 -2.605E-3
0.773333 607.660 15.8456 -2.573E-3
0.806667 608.216 15.8458 -2.522E-3
0.840833 608.804 15.8461 -2.515E-3
0.875000 609.408 15.8464 -2.556E-3
0.908333 610.010 15.8468 -2.591E-3
0.941667 610.628 15.8471 -2.594E-3
0.975000 611.255 15.8473 -2.565E-3
1.00917 611.913 15.8476 -2.565E-3
1.04333 612.582 15.8478 -2.633E-3
1.07667 613.246 15.8479 -2.633E-3
1.11000 613.917 15.8482 -2.714E-3
1.14333 614.597 15.8486 -2.781E-3
1.17750 615.301 15.8487 -2.799E-3
1.21167 616.012 15.8489 -2.876E-3
1.24500 616.711 15.8493 -2.943E-3
1.27833 617.414 15.8497 -3.064E-3
1.31167 618.121 15.8501 -3.235E-3
1.34583 618.849 15.8507 -3.374E-3
1.38000 619.578 15.8511 -3.529E-3
1.41333 620.291 15.8513 -3.696E-3
1.44667 621.007 15.8516 -3.779E-3
1.48000 621.722 15.8520 -3.768E-3
1.51417 622.455 15.8525 -3.779E-3
1.54833 623.189 15.8530 -3.771E-3
1.58167 623.904 15.8536 -3.718E-3
1.61500 624.617 15.8541 -3.745E-3
1.64833 625.330 15.8544 -3.786E-3
1.68250 626.057 15.8547 -3.799E-3
1.71667 626.782 15.8551 -3.818E-3
1.75000 627.488 15.8556 -3.820E-3
1.78333 628.189 15.8559 -3.829E-3
1.81667 628.889 15.8562 -3.815E-3
1.85083 629.602 15.8567 -3.782E-3
1.88500 630.313 15.8572 -3.835E-3
1.91833 631.002 15.8576 -3.930E-3
1.95167 631.689 15.8582 -3.971E-3
1.98500 632.370 15.8586 -3.987E-3
2.01917 633.066 15.8591 -4.054E-3
2.05333 633.758 15.8594 -4.116E-3
2.08667 634.430 15.8597 -4.175E-3
2.12000 635.099 15.8600 -4.194E-3
2.15333 635.765 15.8606 -4.229E-3
2.18750 636.446 15.8610 -4.304E-3
2.22167 637.122 15.8615 -4.414E-3
2.25500 637.782 15.8620 -4.597E-3
2.28833 638.437 15.8624 -4.805E-3
2.32167 639.091 15.8630 -4.935E-3
2.35583 639.759 15.8634 -4.942E-3
2.39000 640.426 15.8638 -4.831E-3
2.42333 641.075 15.8644 -4.695E-3
2.45667 641.723 15.8649 -4.611E-3
2.49000 642.369 15.8656 -4.598E-3
2.52417 643.031 15.8664 -4.596E-3
2.55833 643.692 15.8669 -4.476E-3
2.59167 644.336 15.8670 -4.471E-3
2.62500 644.981 15.8672 -4.689E-3
2.65833 645.625 15.8673 -4.833E-3
2.69250 646.286 15.8677 -4.803E-3
2.72667 646.946 15.8684 -4.758E-3
2.75967 647.589 15.8691 -4.882E-3
2.79300 648.234 15.8695 -5.108E-3
2.82633 648.880 15.8695 -5.411E-3
2.86050 649.541 15.8710 -5.768E-3
2.89467 650.204 15.8720 -6.122E-3
2.92800 650.851 15.8722 -6.315E-3
2.96133 651.500 15.8720 -6.272E-3
2.99467 652.148 15.8729 -6.258E-3
3.02800 652.798 15.8738 -6.371E-3
3.06150 653.448 15.8744 -6.494E-3
3.09483 654.099 15.8753 -6.381E-3
3.12817 654.751 15.8761 -6.262E-3
3.16150 655.404 15.8771 -6.274E-3
3.19483 656.058 15.8771 -6.319E-3
3.22817 656.713 15.8775 -6.312E-3
3.26150 657.369 15.8784 -6.280E-3
3.29483 658.025 15.8793 -6.258E-3
3.32817 658.681 15.8797 -6.281E-3
3.36150 659.340 15.8803 -6.407E-3
3.39483 659.999 15.8808 -6.486E-3
3.42817 660.657 15.8811 -6.580E-3
3.46150 661.318 15.8818 -6.600E-3
3.49483 661.979 15.8831 -6.489E-3
3.52817 662.639 15.8838 -6.354E-3
3.56150 663.301 15.8843 -6.343E-3
3.59483 663.966 15.8855 -6.386E-3
3.62817 664.630 15.8863 -6.349E-3
3.66150 665.294 15.8866 -6.345E-3
3.69483 665.959 15.8868 -6.256E-3
3.72817 666.624 15.8874 -6.091E-3
3.76167 667.290 15.8879 -6.095E-3
3.79500 667.956 15.8885 -6.174E-3
3.82833 668.622 15.8894 -6.114E-3
3.86167 669.287 15.8900 -6.122E-3
3.89500 669.955 15.8906 -6.334E-3
3.92833 670.621 15.8913 -6.591E-3
3.96167 671.286 15.8920 -6.722E-3
3.99500 671.954 15.8928 -6.734E-3
4.02833 672.620 15.8937 -6.753E-3
4.06167 673.288 15.8942 -6.710E-3
4.09500 673.954 15.8946 -6.693E-3
4.12800 674.618 15.8954 -6.702E-3
4.16133 675.287 15.8964 -6.753E-3
4.19467 675.954 15.8972 -6.802E-3
4.22800 676.621 15.8976 -6.766E-3
4.26133 677.288 15.8983 -6.718E-3
4.29467 677.956 15.8990 -6.735E-3
4.32800 678.622 15.8996 -6.753E-3
4.36133 679.290 15.9003 -6.624E-3
4.39467 679.957 15.9012 -6.464E-3
4.42800 680.624 15.9021 -6.397E-3
4.46133 681.290 15.9026 -6.380E-3
4.49467 681.957 15.9032 -6.337E-3
4.52800 682.623 15.9038 -6.408E-3
4.56133 683.289 15.9045 -6.566E-3
4.59467 683.955 15.9050 -6.703E-3
4.62800 684.622 15.9055 -6.713E-3
4.66133 685.287 15.9062 -6.713E-3
4.69467 685.953 15.9069 -6.767E-3
4.72800 686.619 15.9073 -6.811E-3
4.76133 687.285 15.9084 -6.868E-3
4.79467 687.950 15.9096 -6.939E-3
4.82800 688.617 15.9106 -7.062E-3
4.86133 689.282 15.9111 -7.140E-3
4.89467 689.949 15.9116 -7.066E-3
4.92800 690.615 15.9122 -6.967E-3
4.96133 691.280 15.9127 -6.900E-3
4.99467 691.947 15.9134 -6.732E-3
5.02800 692.613 15.9142 -6.591E-3
5.06133 693.279 15.9151 -6.591E-3
5.09467 693.945 15.9160 -6.750E-3
5.12800 694.611 15.9164 -6.798E-3
5.16133 695.277 15.9169 -6.782E-3
5.19467 695.942 15.9176 -6.667E-3
5.22800 696.609 15.9183 -6.598E-3
5.26167 697.277 15.9191 -6.565E-3
5.29500 697.942 15.9198 -6.553E-3
5.32833 698.610 15.9210 -6.623E-3
5.36167 699.276 15.9213 -6.813E-3
5.39500 699.943 15.9219 -6.954E-3
5.42833 700.609 15.9221 -6.934E-3
5.46167 701.277 15.9229 -6.946E-3
5.49500 701.944 15.9238 -6.963E-3
5.52833 702.610 15.9247 -6.930E-3
5.56150 703.278 15.9255 -6.855E-3
5.59483 703.944 15.9265 -6.977E-3
5.62817 704.611 15.9273 -7.083E-3
5.66150 705.278 15.9276 -7.143E-3
5.69483 705.945 15.9283 -7.057E-3
5.72817 706.612 15.9292 -6.886E-3
5.76150 707.279 15.9298 -6.755E-3
5.79483 707.945 15.9303 -6.793E-3
5.82817 708.612 15.9312 -6.873E-3
5.86150 709.279 15.9320 -6.878E-3
5.89483 709.947 15.9327 -6.982E-3
5.92817 710.613 15.9332 -7.024E-3
5.96150 711.281 15.9339 -6.965E-3
5.99483 711.948 15.9344 -6.959E-3
6.02817 712.616 15.9355 -7.040E-3
6.06150 713.283 15.9367 -7.012E-3
6.09483 713.951 15.9372 -6.891E-3
6.12817 714.619 15.9377 -6.959E-3
6.16150 715.286 15.9385 -7.111E-3
6.19483 715.954 15.9390 -7.253E-3
6.22900 716.638 15.9397 -7.361E-3
6.26317 717.323 15.9406 -7.292E-3
6.29650 717.991 15.9414 -7.177E-3
6.32983 718.658 15.9417 -7.164E-3
6.36317 719.326 15.9427 -7.144E-3
6.39733 720.010 15.9438 -7.028E-3
6.43150 720.694 15.9448 -6.956E-3
6.46483 721.363 15.9457 -6.929E-3
6.49817 722.031 15.9462 -6.862E-3
6.53150 722.699 15.9468 -6.829E-3
6.56567 723.385 15.9472 -6.877E-3
6.59983 724.070 15.9479 -6.832E-3
6.63317 724.738 15.9483 -6.799E-3
6.66650 725.406 15.9489 -6.839E-3
6.69983 726.074 15.9499 -6.996E-3
6.73400 726.759 15.9508 -7.200E-3
6.76817 727.444 15.9516 -7.346E-3
6.80150 728.112 15.9523 -7.520E-3
6.83483 728.781 15.9532 -7.669E-3
6.86817 729.448 15.9541 -7.752E-3
6.90233 730.132 15.9549 -7.707E-3
6.93650 730.817 15.9559 -7.612E-3
6.96983 731.485 15.9566 -7.550E-3
7.00317 732.152 15.9572 -7.509E-3
7.03650 732.820 15.9579 -7.528E-3
7.07150 733.522 15.9589 -7.502E-3
7.10650 734.223 15.9597 -7.366E-3
7.13983 734.893 15.9602 -7.284E-3
7.17317 735.561 15.9610 -7.154E-3
7.20650 736.228 15.9619 -7.081E-3
7.23983 736.897 15.9626 -7.090E-3
7.27300 737.565 15.9635 -7.060E-3
7.30633 738.232 15.9644 -7.012E-3
7.33967 738.901 15.9648 -7.015E-3
7.37300 739.570 15.9655 -7.076E-3
7.40717 740.254 15.9661 -7.108E-3
7.44133 740.938 15.9668 -7.119E-3
7.47500 741.609 15.9676 -7.149E-3
7.50833 742.277 15.9683 -7.168E-3
7.54167 742.946 15.9692 -7.210E-3
7.57583 743.630 15.9700 -7.327E-3
7.61000 744.314 15.9708 -7.367E-3
7.64333 744.982 15.9716 -7.382E-3
7.67667 745.650 15.9724 -7.383E-3
7.71000 746.318 15.9732 -7.371E-3
7.74417 747.003 15.9739 -7.329E-3
7.77833 747.687 15.9747 -7.260E-3
7.81167 748.355 15.9754 -7.197E-3
7.84500 749.023 15.9761 -7.270E-3
7.87833 749.691 15.9768 -7.390E-3
7.91250 750.375 15.9775 -7.379E-3
7.94650 751.059 15.9784 -7.397E-3
7.97983 751.727 15.9792 -7.439E-3
8.01317 752.396 15.9799 -7.464E-3
8.04650 753.063 15.9804 -7.501E-3
8.08067 753.748 15.9815 -7.505E-3
8.11483 754.432 15.9828 -7.505E-3
8.14817 755.099 15.9832 -7.456E-3
8.18150 755.767 15.9839 -7.362E-3
8.21483 756.434 15.9847 -7.303E-3
8.24900 757.119 15.9854 -7.251E-3
8.28317 757.804 15.9863 -7.198E-3
8.31650 758.473 15.9869 -7.047E-3
8.34983 759.141 15.9877 -6.857E-3
8.38317 759.809 15.9884 -6.843E-3
8.41733 760.493 15.9891 -6.863E-3
8.45150 761.179 15.9898 -6.822E-3
8.48483 761.846 15.9905 -6.782E-3
8.51817 762.515 15.9913 -6.740E-3
8.55150 763.182 15.9920 -6.719E-3
8.58567 763.868 15.9925 -6.677E-3
8.61983 764.552 15.9932 -6.613E-3
8.65317 765.221 15.9940 -6.418E-3
8.68650 765.888 15.9947 -4.601E-3
8.71983 766.557 15.9954 .00577456
8.75483 767.258 15.9961 0.0357060
8.78983 767.959 15.9968 0.0861598
8.82317 768.627 15.9975 0.145943
8.85650 769.295 15.9981 0.205170
8.88983 769.963 15.9985 0.258180
8.92317 770.631 15.9978 0.302674
8.95650 771.298 15.9789 0.337666
8.98983 771.964 15.9142 0.362650
9.02317 772.632 15.8098 0.376732
9.05650 773.298 15.7049 0.379569
9.09067 773.982 15.6333 0.371381
9.12483 774.666 15.5924 0.351938
9.15817 775.335 15.5697 0.321162
9.19150 776.004 15.5566 0.277341
9.22483 776.672 15.5485 0.219704
9.25817 777.340 15.5432 0.155988
9.29150 778.009 15.5394 0.100052
9.32483 778.677 15.5367 0.0615058
9.35817 779.346 15.5347 0.0385188
9.39150 780.013 15.5332 0.0252260
9.42483 780.682 15.5319 0.0172831
9.45817 781.351 15.5308 0.0122222
9.49150 782.018 15.5301 .00882675
9.52483 782.686 15.5298 .00643306
9.55817 783.356 15.5294 .00461953
9.59150 784.024 15.5293 .00317636
9.62483 784.691 15.5292 .00199372
9.65817 785.359 15.5292 9.6076E-4
9.69150 786.027 15.5294 9.0195E-5
9.72483 786.696 15.5294 -6.364E-4
9.75817 787.364 15.5291 -1.248E-3
9.79150 788.032 15.5291 -1.749E-3
9.82483 788.700 15.5295 -2.199E-3
9.85817 789.369 15.5298 -2.657E-3
9.89150 790.037 15.5303 -3.064E-3
9.92500 790.705 15.5306 -3.392E-3
9.95833 791.373 15.5311 -3.738E-3
9.99167 792.040 15.5317 -4.119E-3
10.0250 792.709 15.5320 -4.447E-3
10.0583 793.376 15.5324 -4.707E-3
10.0917 794.044 15.5330 -4.928E-3
10.1250 794.711 15.5336 -5.092E-3
10.1583 795.379 15.5339 -5.242E-3
10.1917 796.046 15.5344 -5.364E-3
10.2250 796.713 15.5350 -5.456E-3
10.2583 797.380 15.5356 -5.600E-3
10.2917 798.048 15.5364 -5.705E-3
10.3247 798.713 15.5372 -5.754E-3
10.3580 799.381 15.5377 -5.898E-3
10.3913 800.049 15.5382 -6.103E-3
10.4247 800.718 15.5388 -6.248E-3
10.4580 801.386 15.5393 -6.252E-3
10.4913 802.054 15.5400 -6.155E-3
10.5247 802.722 15.5406 -6.111E-3
10.5580 803.390 15.5411 -6.188E-3
10.5913 804.058 15.5420 -6.328E-3
10.6247 804.726 15.5429 -6.441E-3
10.6582 805.395 15.5437 -6.543E-3
10.6915 806.062 15.5442 -6.574E-3
10.7248 806.730 15.5444 -6.563E-3
10.7582 807.397 15.5450 -6.595E-3
10.7915 808.065 15.5460 -6.647E-3
10.8248 808.732 15.5469 -6.632E-3
10.8582 809.400 15.5475 -6.674E-3
10.8915 810.067 15.5483 -6.762E-3
10.9248 810.735 15.5489 -6.891E-3
10.9582 811.403 15.5494 -7.033E-3
10.9915 812.071 15.5501 -7.065E-3
11.0248 812.738 15.5510 -6.974E-3
11.0582 813.407 15.5516 -6.919E-3
11.0915 814.075 15.5526 -6.937E-3
11.1248 814.742 15.5534 -6.940E-3
11.1582 815.410 15.5540 -6.962E-3
11.1915 816.078 15.5547 -7.007E-3
11.2248 816.746 15.5554 -7.037E-3
11.2582 817.413 15.5560 -7.039E-3
11.2915 818.081 15.5568 -7.077E-3
11.3248 818.748 15.5575 -7.101E-3
11.3582 819.416 15.5582 -7.150E-3
11.3915 820.083 15.5588 -7.260E-3
11.4248 820.750 15.5596 -7.324E-3
11.4582 821.418 15.5605 -7.385E-3
11.4915 822.086 15.5613 -7.439E-3
11.5248 822.752 15.5621 -7.526E-3
11.5582 823.420 15.5630 -7.594E-3
11.5915 824.088 15.5637 -7.624E-3
11.6248 824.756 15.5646 -7.650E-3
11.6582 825.424 15.5652 -7.651E-3
11.6915 826.092 15.5660 -7.611E-3
11.7248 826.760 15.5666 -7.642E-3
11.7582 827.428 15.5676 -7.622E-3
11.7915 828.096 15.5685 -7.449E-3
11.8248 828.763 15.5692 -7.383E-3
11.8582 829.431 15.5699 -7.387E-3
11.8915 830.098 15.5708 -7.454E-3
11.9248 830.768 15.5715 -7.497E-3
11.9582 831.434 15.5724 -7.497E-3
11.9915 832.102 15.5733 -7.390E-3
12.0248 832.770 15.5734 -7.286E-3
12.0582 833.437 15.5741 -7.273E-3
12.0915 834.104 15.5752 -7.288E-3
12.1248 834.772 15.5761 -7.325E-3
12.1583 835.439 15.5770 -7.363E-3
12.1917 836.105 15.5778 -7.358E-3
12.2250 836.774 15.5783 -7.397E-3
12.2583 837.440 15.5789 -7.557E-3
12.2917 838.108 15.5797 -7.612E-3
12.3250 838.775 15.5805 -7.489E-3
12.3583 839.442 15.5814 -7.362E-3
12.3917 840.109 15.5823 -7.310E-3
12.4247 840.774 15.5829 -7.372E-3
12.4588 841.459 15.5839 -7.605E-3
